scanname Analyse001
timestamp 2017-02-10 19:45:35
ccdbias 909.008789
ccdgain 3.473401
sigmaread 8.960639
laserwavenum -0.906385
wavenumcorrection -0.383421
scancount 1
totalexposurems 10000
singleexposurems 10000
measurementstate Unknown
scanmode Manual
snr 200.998367 4.853879 4.217169
replacelist 3
374 37715.000000 15156.000000
383 37550.000000 12104.000000
672 36273.000000 30906.000000
peaks 25
277.542572 0.565697 0.000000 1.529134 0.000176
295.699646 0.560985 0.000000 0.298945 0.000025
333.931366 0.562672 0.000000 0.716344 0.000118
388.155243 0.577747 0.000000 1.352292 0.000268
454.769745 0.566530 0.000000 0.209348 0.000014
461.281769 0.568408 0.000000 0.221093 0.000025
495.365967 0.572900 0.000000 0.842102 0.000029
530.760315 0.574456 0.000000 1.645460 0.000341
570.597168 0.575773 0.000000 0.522910 0.000030
580.414063 0.577093 0.000000 0.332611 0.000025
678.273499 0.571733 0.000000 0.730046 0.000054
716.422729 0.573980 0.000000 4.130642 0.000781
739.065613 0.562004 0.000000 0.545195 0.000036
767.264771 0.588204 0.000000 3.434544 0.000721
786.334473 0.576721 0.000000 1.952121 0.000474
830.186218 0.560217 0.000000 0.636901 0.000077
875.816345 0.606762 0.000000 2.445374 0.000619
936.683594 0.549622 0.000000 0.444324 0.000072
955.630737 0.548915 0.000000 2.883162 0.000739
1045.488770 0.559791 0.000000 2.654391 0.000765
1083.708130 0.545163 0.000000 0.387202 0.000055
1090.238159 0.544323 0.000000 0.702416 0.000104
1322.755737 0.613257 0.000000 15.541116 0.004818
1455.147339 0.542522 0.000000 7.860775 0.003098
1663.238159 0.458636 0.000000 2.440625 0.001072
finalresult GLS_NoMatch 0
spectrum 2048
-96.695068 45372.000000
-94.068199 45372.000000
-91.443207 46014.000000
-88.820107 46196.000000
-86.198875 46912.000000
-83.579544 46813.000000
-80.962074 47044.000000
-78.346481 46931.000000
-75.732765 47139.000000
-73.120926 47495.000000
-70.510948 47437.000000
-67.902855 47572.000000
-65.296608 47601.000000
-62.692242 47662.000000
-60.089733 47509.000000
-57.489079 48039.000000
-54.890285 47355.000000
-52.293350 46731.000000
-49.698269 47140.000000
-47.105042 47061.000000
-44.513664 47398.000000
-41.924133 46874.000000
-39.336445 47706.000000
-36.750607 47512.000000
-34.166611 47126.000000
-31.584450 47837.000000
-29.004137 47252.000000
-26.425652 47856.000000
-23.849009 47361.000000
-21.274191 47252.000000
-18.701214 46959.000000
-16.130056 46929.000000
-13.560733 46621.000000
-10.993235 45686.000000
-8.427555 47024.000000
-5.863701 46850.000000
-3.301661 47206.000000
-0.741445 47283.000000
1.816963 46740.000000
4.373550 45963.000000
6.928332 46080.000000
9.481297 46445.000000
12.032462 45390.000000
14.581814 45164.000000
17.129370 44526.000000
19.675114 44836.000000
22.219065 44578.000000
24.761211 42344.000000
27.301561 40248.000000
29.840126 37284.000000
32.376892 33359.000000
34.911858 26632.000000
37.445045 14160.000000
39.976452 9032.000000
42.506065 8112.000000
45.033882 7463.000000
47.559940 6599.000000
50.084209 5795.000000
52.606709 5191.000000
55.127411 4893.000000
57.646358 5171.000000
60.163532 6521.000000
62.678928 8026.000000
65.192551 8461.000000
67.704414 7918.000000
70.214531 6002.000000
72.722855 4254.000000
75.229424 3616.000000
77.734245 2994.000000
80.237312 2368.000000
82.738602 2124.000000
85.238152 2004.000000
87.735947 2028.000000
90.232010 2192.000000
92.726295 2724.000000
95.218842 3133.000000
97.709671 3116.000000
100.198730 2876.000000
102.686043 2087.000000
105.171631 1668.000000
107.655479 1559.000000
110.137581 1452.000000
112.617958 1353.000000
115.096611 1310.000000
117.573540 1229.000000
120.048714 1286.000000
122.522179 1277.000000
124.993912 1199.000000
127.463936 1447.000000
129.932205 1475.000000
132.398804 1641.000000
134.863647 1831.000000
137.326797 2021.000000
139.788208 2365.000000
142.247925 2847.000000
144.705917 3459.000000
147.162216 4383.000000
149.616806 5453.000000
152.069672 6543.000000
154.520859 8023.000000
156.970352 10006.000000
159.418121 11767.000000
161.864182 13935.000000
164.308563 15831.000000
166.751266 17873.000000
169.192276 19372.000000
171.631577 20703.000000
174.069168 21226.000000
176.505127 22182.000000
178.939346 22354.000000
181.371887 22308.000000
183.802780 22673.000000
186.231949 22489.000000
188.659470 22529.000000
191.085312 22932.000000
193.509476 23524.000000
195.931976 24174.000000
198.352783 24827.000000
200.771927 26501.000000
203.189407 28097.000000
205.605194 27776.000000
208.019333 29780.000000
210.431839 32006.000000
212.842667 34399.000000
215.251816 35437.000000
217.659332 35224.000000
220.065140 37160.000000
222.469360 37304.000000
224.871872 37531.000000
227.272766 37473.000000
229.672012 38092.000000
232.069595 37756.000000
234.465515 37377.000000
236.859818 38082.000000
239.252457 38478.000000
241.643478 37635.000000
244.032837 37939.000000
246.420578 38071.000000
248.806671 37340.000000
251.191132 38161.000000
253.573944 36283.000000
255.955185 37502.000000
258.334717 37354.000000
260.712677 37408.000000
263.088959 36297.000000
265.463684 36186.000000
267.836761 35780.000000
270.208191 37345.000000
272.577972 36945.000000
274.946198 37437.000000
277.312775 36865.000000
279.677765 36709.000000
282.041138 37155.000000
284.402863 36878.000000
286.763000 35974.000000
289.121521 37117.000000
291.478455 36462.000000
293.833771 36553.000000
296.187500 36915.000000
298.539581 36880.000000
300.890106 36474.000000
303.239044 36472.000000
305.586334 35935.000000
307.932098 36274.000000
310.276184 36233.000000
312.618744 35324.000000
314.959686 35048.000000
317.299011 35407.000000
319.636780 35408.000000
321.972992 34121.000000
324.307556 35833.000000
326.640564 35472.000000
328.972015 35982.000000
331.301880 35372.000000
333.630157 35563.000000
335.956818 34697.000000
338.281982 35517.000000
340.605530 35612.000000
342.927521 35839.000000
345.247955 34293.000000
347.566772 34101.000000
349.884033 35693.000000
352.199768 35808.000000
354.513916 34698.000000
356.826477 35409.000000
359.137482 35346.000000
361.446960 34778.000000
363.754913 35340.000000
366.061249 36084.000000
368.365997 35331.000000
370.669281 35460.000000
372.970947 35704.000000
375.271118 35556.000000
377.569733 35764.000000
379.866791 36331.000000
382.162292 36121.000000
384.456268 36368.000000
386.748657 37119.000000
389.039551 36917.000000
391.328918 36449.000000
393.616699 36606.000000
395.902954 36384.000000
398.187714 35877.000000
400.470856 36789.000000
402.752563 36389.000000
405.032745 36620.000000
407.311340 35560.000000
409.588409 36417.000000
411.863953 35942.000000
414.137970 36129.000000
416.410553 36063.000000
418.681519 36188.000000
420.950989 36111.000000
423.218964 35373.000000
425.485382 35207.000000
427.750305 35965.000000
430.013763 35851.000000
432.275635 35539.000000
434.536041 36005.000000
436.794891 35150.000000
439.052277 35626.000000
441.308167 35887.000000
443.562561 35651.000000
445.815430 35935.000000
448.066742 34460.000000
450.316650 35177.000000
452.564972 34919.000000
454.811859 35391.000000
457.057281 34650.000000
459.301147 34616.000000
461.543518 34587.000000
463.784393 35358.000000
466.023865 34359.000000
468.261749 35597.000000
470.498199 35165.000000
472.733124 34974.000000
474.966583 33705.000000
477.198608 34270.000000
479.429108 35069.000000
481.658112 34330.000000
483.885651 34551.000000
486.111694 34938.000000
488.336304 34365.000000
490.559448 35078.000000
492.781128 34592.000000
495.001251 34315.000000
497.219971 35305.000000
499.437195 34685.000000
501.653046 35436.000000
503.867279 34987.000000
506.080200 34830.000000
508.291534 34831.000000
510.501434 34450.000000
512.709900 34752.000000
514.916992 34665.000000
517.122498 34739.000000
519.326599 34570.000000
521.529175 34816.000000
523.730347 34376.000000
525.930176 34249.000000
528.128479 33890.000000
530.325256 35275.000000
532.520691 34747.000000
534.714600 35151.000000
536.907166 33317.000000
539.098206 34044.000000
541.287842 34369.000000
543.476074 33546.000000
545.662781 33082.000000
547.848022 33003.000000
550.031982 33339.000000
552.214355 32975.000000
554.395386 33052.000000
556.574890 33031.000000
558.753113 33130.000000
560.929810 33018.000000
563.105103 32674.000000
565.278992 32552.000000
567.451416 32950.000000
569.622437 32869.000000
571.791992 32611.000000
573.960266 33720.000000
576.127014 32659.000000
578.292297 32821.000000
580.456177 32971.000000
582.618774 33345.000000
584.779846 33136.000000
586.939514 33586.000000
589.097839 33550.000000
591.254639 33347.000000
593.410095 33038.000000
595.564148 33863.000000
597.716858 33727.000000
599.868042 32736.000000
602.017883 33242.000000
604.166382 33192.000000
606.313293 33761.000000
608.458984 33482.000000
610.603271 33635.000000
612.746094 33021.000000
614.887451 33736.000000
617.027588 33543.000000
619.166199 32205.000000
621.303528 34090.000000
623.439392 33062.000000
625.573853 32812.000000
627.706848 32374.000000
629.838684 32657.000000
631.969055 32523.000000
634.098022 32343.000000
636.225525 32384.000000
638.351746 32453.000000
640.476440 31107.000000
642.599915 32110.000000
644.722046 31502.000000
646.842712 31331.000000
648.962036 31393.000000
651.079956 32005.000000
653.196533 32001.000000
655.311707 31245.000000
657.425537 31153.000000
659.537903 31662.000000
661.649048 31407.000000
663.758789 32094.000000
665.867065 31701.000000
667.974182 31531.000000
670.079834 30885.000000
672.184021 31858.000000
674.286987 32153.000000
676.388550 31115.000000
678.488770 32834.000000
680.587585 31653.000000
682.685059 32384.000000
684.781250 31677.000000
686.875977 32446.000000
688.969482 31704.000000
691.061646 32178.000000
693.152283 30865.000000
695.241699 32102.000000
697.329834 32040.000000
699.416504 32324.000000
701.501953 31429.000000
703.585876 32719.000000
705.668579 31799.000000
707.750000 31712.000000
709.829956 29848.000000
711.908691 30883.000000
713.985962 31399.000000
716.061951 30618.000000
718.136658 31300.000000
720.210083 30384.000000
722.281982 31153.000000
724.352722 29962.000000
726.422119 31297.000000
728.490112 30364.000000
730.556763 30412.000000
732.622192 29630.000000
734.686279 30716.000000
736.749023 30353.000000
738.810425 30144.000000
740.870544 29920.000000
742.929260 30405.000000
744.986755 29795.000000
747.042969 30014.000000
749.097778 29735.000000
751.151306 30025.000000
753.203430 28887.000000
755.254333 30622.000000
757.304016 29580.000000
759.352234 30087.000000
761.399231 30154.000000
763.444946 29521.000000
765.489258 31360.000000
767.532288 31392.000000
769.574097 30742.000000
771.614563 30092.000000
773.653625 29747.000000
775.691528 29961.000000
777.728088 30197.000000
779.763428 30953.000000
781.797424 30825.000000
783.830017 30053.000000
785.861450 31621.000000
787.891479 31366.000000
789.920227 31111.000000
791.947815 30227.000000
793.974060 30209.000000
795.998901 30822.000000
798.022644 31201.000000
800.044983 30438.000000
802.066101 30849.000000
804.085876 30070.000000
806.104370 31820.000000
808.121643 30015.000000
810.137512 29801.000000
812.152222 30634.000000
814.165588 29800.000000
816.177734 29837.000000
818.188660 29746.000000
820.198242 29141.000000
822.206604 30193.000000
824.213562 29529.000000
826.219299 29354.000000
828.223816 29508.000000
830.227051 29566.000000
832.229004 28825.000000
834.229675 29125.000000
836.229126 29249.000000
838.227234 28933.000000
840.224243 28208.000000
842.219849 28902.000000
844.214294 29002.000000
846.207397 28730.000000
848.199280 28079.000000
850.189819 29156.000000
852.179077 28091.000000
854.167297 28889.000000
856.154114 29072.000000
858.139709 28670.000000
860.124023 27984.000000
862.107239 29050.000000
864.089050 29114.000000
866.069641 29949.000000
868.048950 28356.000000
870.027100 29239.000000
872.003906 30104.000000
873.979431 30503.000000
875.953918 30723.000000
877.926941 30984.000000
879.898926 31455.000000
881.869568 30192.000000
883.839050 30257.000000
885.807190 30318.000000
887.774170 30299.000000
889.739807 29223.000000
891.704285 29548.000000
893.667542 29087.000000
895.629578 28545.000000
897.590332 29063.000000
899.549866 28425.000000
901.508118 28104.000000
903.465271 28310.000000
905.421265 28509.000000
907.375854 27674.000000
909.329224 27986.000000
911.281433 27849.000000
913.232422 27832.000000
915.182129 26847.000000
917.130676 27315.000000
919.078003 27211.000000
921.024048 27059.000000
922.968811 26796.000000
924.912537 26362.000000
926.855103 26435.000000
928.796387 26555.000000
930.736328 25598.000000
932.675171 25988.000000
934.612732 26153.000000
936.549072 25777.000000
938.484253 25873.000000
940.418152 25689.000000
942.350952 26028.000000
944.282532 25266.000000
946.212952 26582.000000
948.142151 25783.000000
950.070007 25270.000000
951.996826 25572.000000
953.922363 26056.000000
955.846619 26784.000000
957.769775 26414.000000
959.691772 26059.000000
961.612488 25628.000000
963.532043 26161.000000
965.450439 27160.000000
967.367798 26315.000000
969.283691 26386.000000
971.198486 26632.000000
973.112061 26815.000000
975.024475 26445.000000
976.935669 26359.000000
978.845703 27137.000000
980.754456 26539.000000
982.662170 26642.000000
984.568665 26366.000000
986.473938 26994.000000
988.378113 26031.000000
990.281067 26606.000000
992.182800 25912.000000
994.083374 26241.000000
995.982788 25645.000000
997.880981 26762.000000
999.778015 25653.000000
1001.673828 25495.000000
1003.568481 24354.000000
1005.462036 25659.000000
1007.354309 24236.000000
1009.245667 24726.000000
1011.135681 25150.000000
1013.024475 24344.000000
1014.912109 24615.000000
1016.798584 24160.000000
1018.683899 24044.000000
1020.568054 24440.000000
1022.450989 24557.000000
1024.332886 24175.000000
1026.213501 24589.000000
1028.093018 24368.000000
1029.971558 24437.000000
1031.848755 24869.000000
1033.724609 24562.000000
1035.599487 25094.000000
1037.473389 24911.000000
1039.345825 24530.000000
1041.217285 24631.000000
1043.087402 25344.000000
1044.956543 25744.000000
1046.824463 25786.000000
1048.691284 24945.000000
1050.557007 25286.000000
1052.421509 25429.000000
1054.284912 25305.000000
1056.146973 25260.000000
1058.008057 25563.000000
1059.868042 25153.000000
1061.726685 24929.000000
1063.584229 25655.000000
1065.440674 25025.000000
1067.296021 25541.000000
1069.150146 25706.000000
1071.003418 25366.000000
1072.855225 25382.000000
1074.706055 25550.000000
1076.555664 25663.000000
1078.404053 26165.000000
1080.251587 24248.000000
1082.097778 25989.000000
1083.942749 25308.000000
1085.786865 25802.000000
1087.629639 25734.000000
1089.471191 25040.000000
1091.312012 25450.000000
1093.151245 24940.000000
1094.989746 24877.000000
1096.826904 24928.000000
1098.662842 24249.000000
1100.497803 23760.000000
1102.331543 23800.000000
1104.164307 23582.000000
1105.995728 23669.000000
1107.826294 23409.000000
1109.655518 23309.000000
1111.483765 22800.000000
1113.310791 22288.000000
1115.136841 22991.000000
1116.961670 22806.000000
1118.785400 22310.000000
1120.607910 22791.000000
1122.429321 22753.000000
1124.249878 22873.000000
1126.068970 22739.000000
1127.887207 22576.000000
1129.704102 22599.000000
1131.520142 22625.000000
1133.334961 22718.000000
1135.148682 23079.000000
1136.961304 23045.000000
1138.772705 23290.000000
1140.583130 23374.000000
1142.392456 23263.000000
1144.200439 23115.000000
1146.007690 23438.000000
1147.813477 23427.000000
1149.618408 23393.000000
1151.422241 23399.000000
1153.224854 23386.000000
1155.026611 23324.000000
1156.826904 23323.000000
1158.626221 23250.000000
1160.424561 23059.000000
1162.221558 23021.000000
1164.017822 22960.000000
1165.812744 22830.000000
1167.606567 22708.000000
1169.399536 21959.000000
1171.191162 22279.000000
1172.981812 21976.000000
1174.771484 21928.000000
1176.559692 22252.000000
1178.347046 21714.000000
1180.133301 21843.000000
1181.918457 21891.000000
1183.702515 21916.000000
1185.485474 21385.000000
1187.267456 21768.000000
1189.048218 21679.000000
1190.828003 21455.000000
1192.606689 21323.000000
1194.384399 21466.000000
1196.160889 21252.000000
1197.936279 21049.000000
1199.710571 20754.000000
1201.483765 20619.000000
1203.256104 20239.000000
1205.027100 20509.000000
1206.797241 20450.000000
1208.566162 20385.000000
1210.333984 20353.000000
1212.100952 20238.000000
1213.866577 20266.000000
1215.631226 20192.000000
1217.394775 20146.000000
1219.157227 20194.000000
1220.918823 20168.000000
1222.679199 20208.000000
1224.438477 20009.000000
1226.196899 20039.000000
1227.954102 20044.000000
1229.710205 20156.000000
1231.465210 20375.000000
1233.219360 20247.000000
1234.972168 20531.000000
1236.723999 20452.000000
1238.474976 20537.000000
1240.224609 20779.000000
1241.973389 20569.000000
1243.720825 20803.000000
1245.467529 20688.000000
1247.213013 20814.000000
1248.957642 20970.000000
1250.700928 20806.000000
1252.443237 20787.000000
1254.184448 20663.000000
1255.924805 20456.000000
1257.664063 20109.000000
1259.402100 19561.000000
1261.139282 19362.000000
1262.875244 19539.000000
1264.610229 19905.000000
1266.344238 19954.000000
1268.077271 20514.000000
1269.809082 20648.000000
1271.539917 20758.000000
1273.269531 20754.000000
1274.998291 20933.000000
1276.725952 20937.000000
1278.452515 20901.000000
1280.178223 20965.000000
1281.902588 20720.000000
1283.626099 20842.000000
1285.348633 20630.000000
1287.070190 20607.000000
1288.790527 20430.000000
1290.509888 20428.000000
1292.228149 20081.000000
1293.945435 20380.000000
1295.661743 20349.000000
1297.376831 20352.000000
1299.090942 20488.000000
1300.804077 20182.000000
1302.516357 19939.000000
1304.227417 19338.000000
1305.937500 19591.000000
1307.646484 19592.000000
1309.354248 19364.000000
1311.061401 19237.000000
1312.767090 19208.000000
1314.472046 19346.000000
1316.176025 19419.000000
1317.878784 19617.000000
1319.580566 21243.000000
1321.281494 24724.000000
1322.981079 24148.000000
1324.679810 21423.000000
1326.377808 18698.000000
1328.074463 18634.000000
1329.770020 18520.000000
1331.464722 18416.000000
1333.158203 18662.000000
1334.850830 18529.000000
1336.542603 18296.000000
1338.233032 18091.000000
1339.922729 18143.000000
1341.611328 18240.000000
1343.298828 18139.000000
1344.985352 18176.000000
1346.670776 18014.000000
1348.355225 18182.000000
1350.038818 18080.000000
1351.721191 18234.000000
1353.402588 18241.000000
1355.083130 18560.000000
1356.762451 18452.000000
1358.441162 18712.000000
1360.118530 19071.000000
1361.794800 18953.000000
1363.470093 19132.000000
1365.144653 18963.000000
1366.817993 18944.000000
1368.490356 18826.000000
1370.161743 18947.000000
1371.832153 18876.000000
1373.501465 18850.000000
1375.169800 18953.000000
1376.837280 18795.000000
1378.503662 18734.000000
1380.169067 18820.000000
1381.833496 18896.000000
1383.496704 18578.000000
1385.159302 18525.000000
1386.820557 18324.000000
1388.480957 18176.000000
1390.140259 18113.000000
1391.798584 18060.000000
1393.456177 18026.000000
1395.112549 18088.000000
1396.768066 18012.000000
1398.422363 18254.000000
1400.075806 18172.000000
1401.728149 18227.000000
1403.379761 18305.000000
1405.030151 18132.000000
1406.679443 17808.000000
1408.328003 17219.000000
1409.975464 17150.000000
1411.621948 17007.000000
1413.267578 16997.000000
1414.912231 16868.000000
1416.555664 16742.000000
1418.198242 16712.000000
1419.839722 16782.000000
1421.480347 16754.000000
1423.119995 16904.000000
1424.758545 16672.000000
1426.396240 16537.000000
1428.032837 16544.000000
1429.668457 16480.000000
1431.303345 16300.000000
1432.937134 16320.000000
1434.569824 16314.000000
1436.201538 16384.000000
1437.832397 16432.000000
1439.462158 16284.000000
1441.090820 16128.000000
1442.718872 16431.000000
1444.345825 16495.000000
1445.971558 16512.000000
1447.596680 16563.000000
1449.220703 16964.000000
1450.843750 17094.000000
1452.465820 17186.000000
1454.086792 17409.000000
1455.706787 17554.000000
1457.326050 17404.000000
1458.943970 20983.000000
1460.561279 12892.000000
1462.177612 16866.000000
1463.792725 16621.000000
1465.406982 16668.000000
1467.020386 16791.000000
1468.632690 16995.000000
1470.244141 16868.000000
1471.854736 16595.000000
1473.464111 16595.000000
1475.072510 16646.000000
1476.680054 16635.000000
1478.286621 16767.000000
1479.892456 16734.000000
1481.497070 16433.000000
1483.100830 16412.000000
1484.703369 16131.000000
1486.305298 15625.000000
1487.906006 15475.000000
1489.505981 15383.000000
1491.104858 15167.000000
1492.702881 15331.000000
1494.299805 15126.000000
1495.895874 15549.000000
1497.490967 16257.000000
1499.085083 15997.000000
1500.678467 15967.000000
1502.270752 15951.000000
1503.861816 15850.000000
1505.452393 15643.000000
1507.041626 15822.000000
1508.630249 15423.000000
1510.217773 15263.000000
1511.804199 15207.000000
1513.389893 15382.000000
1514.974487 15309.000000
1516.558228 15306.000000
1518.140869 15151.000000
1519.722778 15157.000000
1521.303589 15293.000000
1522.883667 14979.000000
1524.462524 14920.000000
1526.040527 14702.000000
1527.617798 14594.000000
1529.193848 14585.000000
1530.769165 14591.000000
1532.343384 14271.000000
1533.916870 14379.000000
1535.489136 14448.000000
1537.060669 14382.000000
1538.631226 14350.000000
1540.200928 14253.000000
1541.769409 14165.000000
1543.337158 14316.000000
1544.904053 14144.000000
1546.469727 14093.000000
1548.034668 14057.000000
1549.598511 14201.000000
1551.161743 13960.000000
1552.723633 14077.000000
1554.284912 14114.000000
1555.845093 13962.000000
1557.404541 13914.000000
1558.962891 13793.000000
1560.520508 13655.000000
1562.077026 13689.000000
1563.632324 13847.000000
1565.187012 13827.000000
1566.740967 13765.000000
1568.293945 13906.000000
1569.845581 13922.000000
1571.396484 13614.000000
1572.946655 13825.000000
1574.495850 13902.000000
1576.043701 14032.000000
1577.591064 13755.000000
1579.137451 13979.000000
1580.682983 13941.000000
1582.227539 14013.000000
1583.770874 13913.000000
1585.313599 13878.000000
1586.855469 13950.000000
1588.396240 13866.000000
1589.936035 13958.000000
1591.475098 13757.000000
1593.013062 13824.000000
1594.550537 13800.000000
1596.086670 13903.000000
1597.621704 13729.000000
1599.156250 13711.000000
1600.689819 13576.000000
1602.222534 13788.000000
1603.753662 13706.000000
1605.284546 14019.000000
1606.814575 13902.000000
1608.343384 13628.000000
1609.871094 13669.000000
1611.398193 13829.000000
1612.924561 13974.000000
1614.449951 13853.000000
1615.974487 13884.000000
1617.497681 13521.000000
1619.020142 13826.000000
1620.541870 13871.000000
1622.062744 14106.000000
1623.582153 12676.000000
1625.101074 13587.000000
1626.619263 13668.000000
1628.136597 13622.000000
1629.652832 13536.000000
1631.167725 13404.000000
1632.682129 13366.000000
1634.195801 13289.000000
1635.708374 13501.000000
1637.219727 13377.000000
1638.730713 13259.000000
1640.240601 13199.000000
1641.749634 13305.000000
1643.257324 13338.000000
1644.764648 12987.000000
1646.271118 13045.000000
1647.776611 13069.000000
1649.281250 13046.000000
1650.784424 12963.000000
1652.286987 12838.000000
1653.789185 12754.000000
1655.290039 12786.000000
1656.789795 12500.000000
1658.288696 12571.000000
1659.787231 12384.000000
1661.284546 12540.000000
1662.781128 12504.000000
1664.276123 12328.000000
1665.770874 12190.000000
1667.264771 12264.000000
1668.757690 14052.000000
1670.249268 9352.000000
1671.740356 11823.000000
1673.230835 11835.000000
1674.720215 11861.000000
1676.208130 11792.000000
1677.695801 11824.000000
1679.182495 11998.000000
1680.668335 12010.000000
1682.153320 11851.000000
1683.636841 11657.000000
1685.120117 11461.000000
1686.602539 11505.000000
1688.083862 11440.000000
1689.563721 11453.000000
1691.043335 11513.000000
1692.522217 11390.000000
1694.000122 11481.000000
1695.477051 11440.000000
1696.952759 11478.000000
1698.428101 11325.000000
1699.902222 11264.000000
1701.375732 11174.000000
1702.847778 11355.000000
1704.319580 11204.000000
1705.790405 11342.000000
1707.260376 11267.000000
1708.729004 11439.000000
1710.197144 11361.000000
1711.664551 11264.000000
1713.130859 11267.000000
1714.596558 11285.000000
1716.060547 11298.000000
1717.524414 11247.000000
1718.987427 11176.000000
1720.449463 11163.000000
1721.910278 11250.000000
1723.370483 11215.000000
1724.829956 11337.000000
1726.288574 10987.000000
1727.746216 11242.000000
1729.202515 11205.000000
1730.658569 11190.000000
1732.113647 11066.000000
1733.567749 11099.000000
1735.020630 11079.000000
1736.473267 11210.000000
1737.924805 11111.000000
1739.375610 11024.000000
1740.825439 10974.000000
1742.273926 10989.000000
1743.722046 10711.000000
1745.169312 10765.000000
1746.615845 10776.000000
1748.060791 10733.000000
1749.505493 10670.000000
1750.949341 10805.000000
1752.392334 10607.000000
1753.833862 10621.000000
1755.275146 11235.000000
1756.715576 9280.000000
1758.155029 10571.000000
1759.593506 10406.000000
1761.031006 10393.000000
1762.468018 10154.000000
1763.904053 10260.000000
1765.339233 10186.000000
1766.772949 10160.000000
1768.206543 10454.000000
1769.639160 10291.000000
1771.070923 10465.000000
1772.501831 10312.000000
1773.931519 10264.000000
1775.360474 9913.000000
1776.788940 9830.000000
1778.216431 9513.000000
1779.642578 9192.000000
1781.068481 9747.000000
1782.493286 9753.000000
1783.917480 9771.000000
1785.340210 9717.000000
1786.762451 9592.000000
1788.183960 9590.000000
1789.604736 9606.000000
1791.024536 9543.000000
1792.442993 9530.000000
1793.860962 9343.000000
1795.278320 9415.000000
1796.694824 9537.000000
1798.109863 9415.000000
1799.524536 9313.000000
1800.938599 9325.000000
1802.351440 9297.000000
1803.763672 9371.000000
1805.174561 9246.000000
1806.584961 9126.000000
1807.994629 9175.000000
1809.403320 9290.000000
1810.810913 9197.000000
1812.218018 9309.000000
1813.624268 9259.000000
1815.029541 9315.000000
1816.433716 9392.000000
1817.837524 9182.000000
1819.240356 9378.000000
1820.642334 9211.000000
1822.043701 9302.000000
1823.443604 9240.000000
1824.842896 9303.000000
1826.241699 9177.000000
1827.639648 9106.000000
1829.036255 9200.000000
1830.432251 9096.000000
1831.827515 9125.000000
1833.222168 9011.000000
1834.615845 9175.000000
1836.008179 9120.000000
1837.400024 8932.000000
1838.791260 9050.000000
1840.181519 9014.000000
1841.570557 9054.000000
1842.959229 9039.000000
1844.346924 9000.000000
1845.733887 9071.000000
1847.119507 9008.000000
1848.504883 8935.000000
1849.889404 8806.000000
1851.273193 8784.000000
1852.655884 8877.000000
1854.037354 8880.000000
1855.418335 8771.000000
1856.798828 8623.000000
1858.178345 8620.000000
1859.556396 8778.000000
1860.934326 8664.000000
1862.311279 8518.000000
1863.687500 8482.000000
1865.062866 8580.000000
1866.436768 8553.000000
1867.810547 8471.000000
1869.183472 8323.000000
1870.555298 8333.000000
1871.926147 8145.000000
1873.296631 8355.000000
1874.666016 8239.000000
1876.034912 8295.000000
1877.402222 8190.000000
1878.769409 8127.000000
1880.135620 8210.000000
1881.501099 8094.000000
1882.865845 8146.000000
1884.229004 8020.000000
1885.592041 8014.000000
1886.954224 8057.000000
1888.315552 8036.000000
1889.675537 7977.000000
1891.035156 7992.000000
1892.394165 7968.000000
1893.752197 7897.000000
1895.109375 7876.000000
1896.465332 7762.000000
1897.821045 7757.000000
1899.175781 7876.000000
1900.529663 7905.000000
1901.882446 8008.000000
1903.234741 7975.000000
1904.586304 7806.000000
1905.937012 7891.000000
1907.286499 7898.000000
1908.635498 7879.000000
1909.983643 7702.000000
1911.331177 7876.000000
1912.677979 7682.000000
1914.023193 7896.000000
1915.368164 7838.000000
1916.712402 7968.000000
1918.055786 7908.000000
1919.397827 7948.000000
1920.739624 7877.000000
1922.080566 7772.000000
1923.420776 7845.000000
1924.760010 7939.000000
1926.098267 7748.000000
1927.435913 7710.000000
1928.772827 7783.000000
1930.108887 7766.000000
1931.443726 7857.000000
1932.778198 7699.000000
1934.111938 7745.000000
1935.444824 7635.000000
1936.776245 7656.000000
1938.107788 7605.000000
1939.437988 7534.000000
1940.767700 7574.000000
1942.096558 7562.000000
1943.424194 7612.000000
1944.751343 7558.000000
1946.077759 7656.000000
1947.403442 7568.000000
1948.727783 7524.000000
1950.051880 7476.000000
1951.375122 7512.000000
1952.697632 7404.000000
1954.019043 7387.000000
1955.339478 7452.000000
1956.659302 7443.000000
1957.978760 7296.000000
1959.297241 7324.000000
1960.614380 7319.000000
1961.931152 7187.000000
1963.247192 7142.000000
1964.562500 7204.000000
1965.876343 7300.000000
1967.189941 7201.000000
1968.502808 7129.000000
1969.814819 7196.000000
1971.126221 7204.000000
1972.436279 7113.000000
1973.745850 7094.000000
1975.054688 6994.000000
1976.362915 6913.000000
1977.669800 6880.000000
1978.976074 6902.000000
1980.281982 6833.000000
1981.586670 7024.000000
1982.890869 6874.000000
1984.193848 6853.000000
1985.496460 6916.000000
1986.798096 6921.000000
1988.099121 6669.000000
1989.398560 6811.000000
1990.698120 6693.000000
1991.996582 6501.000000
1993.294556 6674.000000
1994.590942 6714.000000
1995.887329 6625.000000
1997.182739 6566.000000
1998.477417 6486.000000
1999.771240 6504.000000
2001.063843 6427.000000
2002.355957 6438.000000
2003.647583 6400.000000
2004.938477 6508.000000
2006.227783 6560.000000
2007.516846 6446.000000
2008.805176 6371.000000
2010.092773 6388.000000
2011.379517 6320.000000
2012.665161 6256.000000
2013.950439 6256.000000
2015.234741 6302.000000
2016.518433 6439.000000
2017.800781 6324.000000
2019.082764 6333.000000
2020.364258 6316.000000
2021.644775 6271.000000
2022.924561 6274.000000
2024.203247 6307.000000
2025.481201 6267.000000
2026.758667 6196.000000
2028.035522 6254.000000
2029.310669 6385.000000
2030.585938 6378.000000
2031.860229 6362.000000
2033.133545 6412.000000
2034.406006 6352.000000
2035.678101 6358.000000
2036.949097 6224.000000
2038.219849 6360.000000
2039.489258 6228.000000
2040.757568 6403.000000
2042.025879 6212.000000
2043.293213 6324.000000
2044.559814 6197.000000
2045.825195 6280.000000
2047.089966 6418.000000
2048.354492 6256.000000
2049.617676 6164.000000
2050.880615 6287.000000
2052.141602 6204.000000
2053.403076 6081.000000
2054.663330 6071.000000
2055.922852 6027.000000
2057.181641 6094.000000
2058.439453 6081.000000
2059.696777 6129.000000
2060.953369 5999.000000
2062.208496 6037.000000
2063.463623 5999.000000
2064.717773 6033.000000
2065.971191 6003.000000
2067.223877 5905.000000
2068.475342 5997.000000
2069.726563 5883.000000
2070.977051 5913.000000
2072.226807 5970.000000
2073.475098 5925.000000
2074.723389 5939.000000
2075.970703 5891.000000
2077.217285 5891.000000
2078.463135 5845.000000
2079.707764 5737.000000
2080.951904 5773.000000
2082.195557 5714.000000
2083.438232 5757.000000
2084.679688 5722.000000
2085.920898 5645.000000
2087.161621 5646.000000
2088.401367 5740.000000
2089.639893 5594.000000
2090.877930 5559.000000
2092.115234 5581.000000
2093.352295 5513.000000
2094.587891 5628.000000
2095.822754 5568.000000
2097.057373 5538.000000
2098.291016 5681.000000
2099.523682 5577.000000
2100.755615 5461.000000
2101.987061 5440.000000
2103.217529 5499.000000
2104.447266 5506.000000
2105.676758 5419.000000
2106.904297 5298.000000
2108.132080 5379.000000
2109.359131 5242.000000
2110.585205 5353.000000
2111.809814 5298.000000
2113.034668 5284.000000
2114.258301 5186.000000
2115.481445 5268.000000
2116.703369 5269.000000
2117.925049 5228.000000
2119.145752 5428.000000
2120.365723 5289.000000
2121.585205 5309.000000
2122.803223 5357.000000
2124.021240 5320.000000
2125.238281 5261.000000
2126.454834 5349.000000
2127.669678 5350.000000
212!b     %b     (b     ,b     2b     8b     =b     Gb     Jb     Nb     ab     eb     ib     mb     sb     b     b     b     b     b     b     b     b     b     b     b     b     b     b     b     b     b     b     b      c     c     c     c     !c     'c     1c     5c     9c     Jc     Nc     Rc     Vc     Zc     ^c     bc     ec     xc     |c     c     c     c     c     c     c     c     c     c     c     c     c     c     c     c     c     c     c     c     c     c     c     c     d     	d     d     d     "d     %d     )d     ,d     3d     6d     9d     Md     Qd     Ud     _d     ed     kd     {d     d     d     d     d     d     d     d     d     d     d     d     d     d     d     d     d     d     d     e     e     e     e     e     e     e     e     .e     8e     ?e     Ce     He     Ze     ^e     de     ge     ke     pe     ze     ~e     e     e     e     e     e     e     e     e     e     e     e     e     e     e     e     e     e     e      f     f     f     f     f     f     "f     &f     6f     :f     ?f     Bf     Ff     Jf     Nf     af     jf     of     sf     f     f     f     f     f     f     f     f     f     f     f     f     f     f     f     f     f     f     f     f     g     	g     g     g     &g     )g     -g     1g     Cg     Fg     Lg     Pg     Ug     Xg     [g     hg     {g     g     g     g     g     g     g     g     g     g     g     g     g     g     g     g     g     g     g     h     h     h     h     )h     -h     2h     8h     ;h     Jh     Nh     Rh     Vh     [h     eh     ih     mh     h     h     h     h     h     h     h     h     h     h     h     h     h     h     h     h     h     h     h     h     h     i     	i     i     i     i     i     ,i     0i     5i     ;i     ?i     Ci     Qi     [i     _i     bi     ui     zi     ~i     i     i     i     i     i     i     i     i     i     i     i     i     i     i     i     i     i     i     i     i     i     i     i     j     j      j     %j     )j     -j     @j     Ej     Hj     Lj     Oj     Rj     \j     _j     gj     uj     yj     }j     j     j     j     j     j     j     j     j     j     j     j     j     j     j     j     j     j     j     j     j     k     k     k     k     k     k     1k     ;k     >k     Bk     Fk     Ik     Ok     Yk     kk     uk     yk     }k     k     k     k     k     k     k     k     k     k     k     k     k     k     k     k     k     k     k     k     k     k      l     l     l     l     l     "l     6l     :l     >l     Fl     Jl     Xl     \l     _l     cl     fl     nl     sl     l     l     l     l     l     l     l     l     l     l     l     l     l     l     l     l     l     l     l     l     l     l     l     l     
m     m     m     m     m     "m     'm     +m     0m     Cm     Hm     Lm     Om     Tm     Ym     \m     _m     im     mm     rm     vm     zm     ~m     m     m     m     m     m     m     m     m     m     m     m     m     m     m     m     m     n     n     n     n     n     'n     +n     1n     5n     8n     ;n     Kn     On     Sn     Wn     [n     _n     dn     kn     on     n     n     n     n     n     n     n     n     n     n     n     n     n     n     n     n     n     n     n     n     n     o     o     o     o     !o     5o     <o     @o     Do     Qo     To     Yo     ao     to     xo     }o     o     o     o     o     o     o     o     o     o     o     o     o     o     o     o     o     o     o     o     o     p     
p     p     p     $p     *p     /p     3p     @p     Ep     Jp     Mp     Vp     Zp     ^p     qp     tp     {p     p     p     p     p     p     p     p     p     p     p     p     p     p     p     p     p     p     p     p     p     p     
q     q     q     q     q     q     #q     4q     :q     @q     Dq     Hq     Kq     Pq     cq     hq     lq     pq     tq     zq     q     q     q     q     q     q     q     q     q     q     q     q     q     q     q     q     q     q     q     r     	r     r     r     r     &r     )r     ,r     3r     7r     Jr     Nr     Rr     Yr     ^r     br     fr     jr     {r     r     r     r     r     r     r     r     r     r     r     r     r     r     r     r     r     r     r     r      s     s     	s     s      s     %s     )s     0s     4s     Gs     Js     Ms     Qs     Us     ^s     bs     fs     os     ts     xs     s     s     s     s     s     s     s     s     s     s     s     s     s     s     s     s     s     s     s     s     s     t     t     t     t     "t     )t     -t     3t     7t     Dt     Ht     Mt     Qt     Wt     [t     ot     st     yt     }t     t     t     t     t     t     t     t     t     t     t     t     t     t     t     t     t     t     t     u     u     u     u     u     u     0u     3u     7u     <u     Au     Fu     Ju     Mu     Qu     Tu     gu     ju     nu     su     wu     {u     u     u     u     u     u     u     u     u     u     u     u     u     u     u     u     u     	v     v     v     v     v     v     .v     2v     6v     9v     =v     Cv     Gv     Mv     Qv     Tv     fv     jv     mv     pv     tv     {v     v     v     v     v     v     v     v     v     v     v     v     v     v     v     v     v     v     v     w     
w     w     w     w     w     )w     .w     5w     :w     Mw     Tw     Yw     ]w     mw     pw     tw     xw     |w     w     w     w     w     w     w     w     w     w     w     w     w     w     w     w     w     w     w     w     w     x     x     x     x     x     x     x     x     /x     5x     :x     ?x     Rx     Vx     \x     _x     lx     ox     tx     xx     }x     x     x     x     x     x     x     x     x     x     x     x     x     x     x     x     x     x     x     x     x     y     y     y     y     y      y     $y     (y     ,y     /y     By     Gy     Ky     Py     Ty     Yy     ]y     jy     ny     sy     wy     {y     y     y     y     y     y     y     y     y     y     y     y     y     y     y     y     y     y     y     y     z     z     
z     z     z     !z     %z     ,z     0z     5z     9z     =z     Az     Tz     Xz     ]z     az     hz     lz     pz     sz     vz     z     z     z     z     z     z     z     z     z     z     z     z     z     z     z     z     z     z     {     {     {     {     {     {     {     ${     4{     8{     @{     D{     H{     [{     _{     c{     j{     o{     {{     {     {     {     {     {     {     {     {     {     {     {     {     {     {     {     {     {     {     {     {     {     {     {     |     |     |     |     |     $|     )|     /|     3|     7|     ;|     E|     H|     N|     Q|     W|     \|     a|     f|     y|     ~|     |     |     |     |     |     |     |     |     |     |     |     |     |     |     |     |     |     |     |     }     }     }     }     %}     )}     -}     1}     5}     B}     E}     H}     M}     Q}     [}     _}     c}     f}     j}     }}     }     }     }     }     }     }     }     }     }     }     }     }     }     }     }     }     }     }     }     }     }     }     }     ~     ~     ~      ~     $~     (~     -~     1~     D~     H~     M~     R~     X~     \~     a~     d~     h~     x~     |~     ~     ~     ~     ~     ~     ~     ~     ~     ~     ~     ~     ~     ~     ~     ~     ~     ~     ~                	                    3     7     ;     ?     K     N     X     \     _     r     w     }                                                                                                                             )     1     7     ;     A     T     Y     ]     d     h     w     {                                                  À     ɀ     Ѐ     Ԁ                                                             !     '     3     :     E     L     R     X     [     ^     q     u     y     }                                                            Ɓ     ́     Ё     ԁ     ف     ށ                                        "     %     )     -     3     7     I     N     R     Y     ]     l     o     s     x     {                                                            ̂     ҂     ւ     ڂ     ߂                                                       #     (     -     3     F     J     M     S     \     a     r     v     z                                                            ΃     ҃     փ     ڃ     ߃                                                                       $     3     7     ;     ?     F     J     N     a     e     i     o     u     y                                             Ƅ     ̄     τ     ӄ     ք     ڄ                                   &     )     -     6     :     >     Q     V     Y     \     _     g     j     n     y     |                                                            ˅     ΅     ҅     ׅ     ܅     ߅                                             &     *     /     3     F     K     O     V     Z     _     c     s     w     ~                                                                 ʆ     ͆     ц     Ն     ۆ                                        
                         *     .     2     5     =     @     D     H     L     ]     f     n                                                                 Ç     Շ     ه     އ                                        
               !     %     )     -     1     7     <     @     S     W     [     _     c     i     m     q     {                                                                 Έ     ш     Ո     و                                                        .     1     5     9     =     B     F     J     ]     a     e     j     m     p     v                                                  ȉ     ̉     ω     ׉     ۉ     މ                                                       2     8     <     ?     D     P     T     Z     ^     b     f     i     {                                                                      Ɗ     ͊                                                            (     +     /     8     =     A     O     U     \     o     s     w     {                                                       ŋ     ˋ     ϋ     Ӌ                                        "     5     :     >     B     G     K     O     b     e     k     t     x     |                                                            Ō     ӌ     ֌     ٌ     ܌     ߌ                                                                  $     1     5     <     @     C     J     P     S     W     \     o     u     |                                                  ƍ     ҍ     ׍     ۍ                    
                         "     &     3     7     ;     @     F     M     T     ]     d     g     j     m     q                                                                      Ҏ     ֎     َ     ގ                                                   $     (     +     /     A     E     L     O     R     W     i     m     p     u     |                                                            ď     ɏ     Ώ     ҏ     ݏ                              	                               %     3     7     >     Q     V     Y     a     d     g     p     u     y     ~                                             ǐ     ʐ     ΐ     Ґ     ֐     ِ     ܐ     ߐ                                                       #     &     *     =     @     G     K     O     ]     a     e     y     ~                                             đ     ɑ     ͑     ӑ     ב     ۑ                                                            !     $     '     +     .     2     C     I     M     R     V     Z     m     q     {                                                  ƒ     ˒     ϒ     ܒ                                                  '     ,     /     3     ?     E     I     \     `     f     i     l     p     t                                                                 ѓ     ֓     ޓ                              	                    &     *     /     3     :     ?     C     V     Z     ^     d     h     n     q                                                            Ŕ     ɔ     ϔ     Ҕ                                                  (     +     1     4     G     L     R     V     [     n     r     v     z                                                  ĕ     ȕ     ˕     ϕ     ӕ     ו     ݕ                                                            *     /     4     7     J     M     R     V     [     ^     a     e     u     x     {     ~                                                            Ė     Ӗ     ז     ۖ                               	                    #     )     /     C     G     K     P     V     Z     ^     o     v     z     ~                                             ė     ȗ     ϗ     ӗ     ۗ                                                        )     -     1     5     :     M     Q     V     Y     \     m     r     v     |                                                  Ř     ɘ     ͘     Ҙ     ՘     ؘ     ޘ                                        +     /     4     9     =     D     H     X     [     c     g     k     o     u                                                       ә     ֙     ڙ     ޙ                                                                 "     6     9     =     @     N     U     Z     ^     q     u     z                                                            Ț     ̚     Ϛ     ՚     ٚ     ܚ                                              !     %     *     7     ;     ?     C     I     P     W     [     _     d     h     p                                                  ƛ     ʛ     Λ     ћ     ۛ     ߛ                                                             &     +     :     ?     C     F     N     Q     V     [     m     t     y     }                                                            Ҝ     ֜     ڜ                                                  &     *     .     >     A     K     O     T     g     k     s     v     z     ~                                                       ʝ     Ν     ߝ                                                             %     0     4     8     A     E     X     ]     j     n     v     y     ~                                             Ğ     Ǟ     Ϟ     Ӟ     מ                                                       1     5     9     >     B     F     K     \     c     g     k                                                            Ɵ     ɟ     ͟     ޟ                                                       0     4     8     ;     @     C     H     L     Q     e     j     n     r     x                                             Ġ     ɠ     Ѡ     ՠ     ڠ     ݠ                                                       $     (     ,     0     3     8     ?     E     U     [     _     c     v     {                                                            ʡ     Ρ     ҡ     ֡     ۡ     ߡ                                             $     '     -     2     7     <     J     N     S     W     [     n     q     x     {                                                       Ģ     آ     ݢ                                             	                         ,     /     3     :     >     B     P     T     [     _     b     f     j     n                                                            ã     ǣ     ˣ     ݣ                                              !     '     +     0     ?     C     F     N     S     W     [     n     q     u     {     ~                                                  Ĥ     Ȥ     ˤ     Ф     դ     ڤ                                        #     '     ,     0     7     <     O     S     X     \     _     b     p     s     y                                                       ť     ɥ     Х     ԥ     إ     ܥ                         	                         .     2     7     =     B     G     Y     \     _     c     h     l     o     s                                                            æ     Ǧ     ڦ     ަ                                   
                         /     3     8     <     A     J     N     a     e     x     }                                                  ǧ     ˧     է     ۧ     ާ                                             #     &     +     6     :     >     D     K     R     V     Z     c     w     z                                                       Ǩ     Ψ     Ҩ                                                  "     (     +     3     7     :     M     Q     V     Y     a     g     l     }                                                                 ̩     ѩ     ֩                               	               #     '     +     /     6     I     L     O     T     X     \     a     o     u     y     ~                                             Ī     Ȫ     ̪                                        
               '     +     0     4     ;     >     B     F     T     X     \     d     h     n                                                       ˫     ϫ     ԫ     ׫                                                        "     ,     0     4     7     <     @     C     V     ]     a     e     t     x                                             Ĭ     ɬ     ά     Ӭ                                   	                         ,     0     4     :     ?     G     L     [     _     c     h     l                                                            ѭ     ԭ     ح     ܭ                                                       ,     2     8     <     J     N     Q     W     [     n     r     v     z                                                  Į     ɮ     ͮ     Ѯ                                                       #     &     +     /     5     9     >     O     U     Z     ^     a     n     s     w     z                                                                 į     ȯ     ί     ӯ                                                             '     +     /     2     7     H     M     R     X     [     n     r     w     {                                                            Ȱ     ̰     ذ     ܰ                                                       +     /     2     7     ;     N     T     X     \     `     n     q     u     x     }                                                  ı     ֱ     ۱     ߱                                                  #     &     5     :     >     A     H     N     S     X     j     m     r     v     z     }                                                  ̲     ϲ     Բ     ܲ     ߲                              
                    #     )     <     A     H     M     \     `     d     i     m     s     x     }                                                  ҳ     ճ     س     ݳ                                              $     +     .     2     5     9     G     K     P     U     Z     ]     q     v     y     }                                             ´     Ǵ     ڴ     ޴                                                  !     (     8     <     C     G     J     ^     d     i     m     q                                                  õ     ǵ     ̵     е     Ե     ص     ޵                                                        %     )     =     A     E     I     P     T     d     i     q     v     z                                                  ö     Ƕ     ˶     Ҷ     ն     ٶ     ݶ                                   	               $     (     ,     ?     B     H     L     Q     b     f     i     m     t     y     }                                                  Ƿ     ˷     ߷                                             '     ,     1     7     ;     >     J     N     S     X     \     `     d     h     l     q                                                            ϸ     Ӹ     ظ     ܸ                               
                    +     1     ;     @     E     H     S     W     [     ^     b     f     l     p                                                       ι     ҹ     ֹ     ٹ     ݹ                                                       !     %     7     ;     ?     G     J     N     R     W     [     `     s     w     }                                             ú     ɺ     ͺ     Ѻ     ׺     ܺ     ߺ                                                  $     (     ,     /     7     ;     ?     P     W     \     o     u     |                                                       »     ƻ     ˻     ϻ                                                       *     .     A     E     I     M     S     X     i     n     u                                                            Ƽ     ʼ     ϼ     Լ     ؼ                              	                              "     &     8     >     C     G     Q     U     X     \     a     p     u     y     }                                                            ý     ս     ٽ     ܽ                                             "     '     0     D     I     O     S     X     \     h     l     q     v                                                  Ͼ     Ҿ     ؾ     ݾ                                        
                    '     +     .     3     7     :     L     R     ^     b     g     z     ~                                                  ƿ     ̿     п     ݿ                                    	                    !     %     (     ,     0     3     6     ;     >     R     V     \     a     d     u     x     |                                                                                                                                  %     )     -     A     E     I     L     S     W     g     k     r     y                                                                                                                   $     (     +     .     8     I     X     ^     a     g     m     s     v     z                                                                                                               ,     /     2     <     H     K     X     e     i     v                                                                                '     .     8     >     D     J     P     V     j     n     r                                                                                                                              !     $     7     A     J     N     Q     ]     a     g     k     o     v     y     }                                                                                                         
                         (     +     /     2     <     A     E     I     M     U     Y     d     h     l     r     z                                                                                                                                        $     '     *     1     4     8     K     U     X     [     d     h     p     s     y     |                                                                                                                                            %     )     1     5     8     ?     C     L     O     S     [     _     h     l     o     t     |                                                                                                                   
                          $     ,     2     6     :     A     E     I     M     U     Z     ^     i     p     t     x                                                                                                         	                    $     (     ,     ?     G     K     N     R     V     c     g     k     y                                                                                          	                    $     '     *     -     1     <     @     G     K     O     [     ^     l     o     r     v     y     }                                                                                                                    (     2     8     K     O     Y     h     k     o     u                                                                                                                                                      "     &     .     2     D     G     Z     a     g     k     o     v     |                                                                                                                                            2     9     =     A     E     I     P     T     X     a     d     h     k     o     y     }                                                                                                                                       !     %     6     :     B     F     N     R     U     X     \     b     f     j     r     w                                                                                                                         #     .     2     6     >     B     H     K     Y     d     g     j     m     v     z     ~                                                                                                                                                      -     7     ;     C     G     J     N     W     b     h     l     p     t     y                                                                                                                                                 '     -     9     <     @     K     O     S     \     c     g     r     v     {                                                                                                                                  %     +     .     3     ;     A     D     H     N     T     \     _     c     l     p     x     |                                                                                                         	                    %     )     3     7     ;     ?     F     J     M     Q     e     m     w     ~                                                                                                                                       "     %     ,     0     C     L     R     V     Z     ^     e     p     t     z     ~                                                                                                         !     )     /     5     8     <     B     L     R     X     [     c     g     k     u     y                                                                                                              	                    "     %     /     3     7     ;     ?     I     M     Q     T     W     `     s     w     {                                                                                                                             (     /     4     7     ?     I     M     T     W     `     d     h     o     s     v     z                                                                                                                                                  (     ,     0     4     7     ?     C     I     M     W     j     p     w     {                                                                                                                   	                          #     &     -     1     5     8     K     O     U     _     c     l     p     s     ~                                                                                                                                        /     8     ;     >     J     N     Q     U     ^     q     {                                                                                                                                                 !     *     -     1     8     ;     >     N     W     Z     ]     `     c     g     o     s     v     ~                                                                                                              	                         %     (     +     4     H     L     T     X     \     `     c     m     q     t     w                                                                                                                                       	               !     5     >     A     E     M     R     V     Y     e     m     q     t     x                                                                                                                             "     )     -     1     8     >     B     L     V     ^     e     n     r     }                                                                                                                                        (     ,     6     9     A     U     ^     b     f     q     y     }                                                                                                              "     &     *     2     >     B     H     L     P     S     Y     ]     `     h     o     s     {                                                                                                                        $     '     +     4     7     ;     E     X     l     s     v                                                                                                                                   (     ,     0     9     G     K     S     W     \     c     g     o     s     ~                                                                                                              
          !     )     0     3     7     >     G     K     P     Y     \     g     k                                                                                                                                  /     :     ?     B     H     Q     T     ^     c     n     r     v     }                                                                                                    	               !     %     )     -     7     ;     C     L     P     T     X     _     c     f     m     p     t     ~                                                                                                                                                  "     )     -     4     8     ;     F     I     L     _     i     l     o     v     y     ~                                                                                                                                                                      #     -     3     7     ?     C     F     Q     W     Z     ^     e     h     l     o     s     v                                                                                                                                                            !     4     :     >     B     J     N     Q     U     Y     a     e     i     l     v     |                                                                                                                             (     ,     /     3     8     A     F     K     O     Y     ]     e     i     o     s     w     z     ~                                                                                                                                                 *     /     3     6     <     A     E     I     M     W     [     _     c     h     l     u     y     }                                                                                                                                                                     !     %     9     B     G     K     P     T     X     \     `     k     n     s     v     z     ~                                                                                                                                                      "     %     )     ,     0     4     8     >     B     E     I     N     R     Y     ]     d     h     l     p     t     x     |                                                                                                                   	                              !     1     6     >     C     H     L     Q     V     Z     ^     c     m     q     u     y                                                                                                                                                       "     &     )     -     1     6     >     B     H     L     P     T     X     `     e     j     n     r     v     |                                                                                                                                                                 $     (     ,     0     C     P     S     W     \     a     e     i     m     v     z                                                                                                                                                            '     ,     0     4     :     C     H     L     P     U     Y     _     f     j     n     r     x     }                                                                                                                         
                         !     %     )     -     1     ?     D     I     N     R     W     [     `     d     j     n     r     v     {                                                                                                                                                                                %     )     -     1     6     9     M     Y     _     c     g     j     m     q     x                                                                                                                                                 #     )     -     1     5     ;     @     H     N     R     V     Z     c     h     l     p     t     x     |                                                                                                                                                                 '     +     /     3     7     E     I     M     Q     [     a     f     j     p     t     w     {                                                                                                                                                           %     -     2     5     :     D     J     P     T     Y     ]     a     f     j     n     r     w     ~                                                                                                                         
                         "     &     *     /     6     ;     >     B     H     N     V     Z     `     e     h     l     p     s     y                                                                                                                                       !     &     .     2     6     =     A     E     I     M     Q     W     Z     _     e     i     q     u     x     |                                                                                                                                  	                         !     +     .     1     6     :     >     B     L     O     W     [     a     g     p     s     x                                                                                                              	                    !     %     ,     0     6     <     @     I     M     P     S     W     ^     b     e     i     l     s     w     {                                                                                                                             	                         #     5     9     ?     C     G     P     S     W     [     ^     b     e     m     r     v     {                                                                                                                                       !     &     .     3     ;     >     A     G     M     W     Z     ^     h     l     p     x     |                                                                                                                                        	                         "     %     (     <     B     F     O     S     V     Y     b     h     n     q     }                                                                                                                                                                 "     %     )     2     6     9     =     A     D     M     Q     T     X     k     q     t     w                                                                                                                                                                                #     &     8     B     E     H     L     P     V     Z     n     v     y                                                                                                                                             
                              #      '      +      /      5      9      =      A      D      L      P      V      i      o      s      v      |                                                                                                                                                          
                         #     &     )     1     5     9     >     B     I     M     S     W     k     t     w     |                                                                                                                                                      !     ,     /     3     7     ;     >     H     L     P     T     X     [     ^     b     e     k     s                                                                                                                                                      #     &     .     2     8     >     D     J     R     W     ]     a     d     g     j     n     q     u                                                                                                                        	                         $     '     /     3     7     ;     >     G     K     N     a     d     j     n     t     z                                                                                                                                                                 "     %     )     -     3     8     <     D     H     K     T     X     \     `     i     m                                                                                                                                                                 #     &     )     /     2     :     >     A     E     O     S     ^     a     i     l     p     t     }                                                                                                                             
                         &     /     3     =     C     G     Z     a     e     i     q     u     x     |                                                                                                                                       &     *     -     4     9     =     F     I     M     T     Z     ^     d     i     p     t     x                                                                                                         	     	     		     	     	     	     	     	     #	     (	     +	     .	     1	     9	     =	     A	     L	     P	     T	     a	     e	     i	     m	     p	     t	     |	     	     	     	     	     	     	     	     	     	     	     	     	     	     	     	     	     	     	     	     	     	     
     
     
     
     
     #
     &
     ,
     5
     9
     =
     A
     L
     Q
     V
     Z
     a
     g
     k
     o
     x
     ~
     
     
     
     
     
     
     
     
     
     
     
     
     
     
     
     
     
     
          	                         &     *     .     2     :     =     @     G     K     N     R     W     `     g     k     o     x     }                                                                                                    
                              *     -     1     5     <     A     J     M     S     W     \     d     h     l     p     x     {                                                                                                                             !     %     (     +     4     7     ;     C     F     L     O     S     ]     c     w                                                                                                                                                                      %     (     ,     0     4     F     M     P     \     `     c     f     m     s     w                                                                                                                                       "     +     /     7     ;     ?     B     G     O     S     V     Z     b     e     i     s     v     {                                                                                                                                            #     ,     0     3     7     @     F     J     M     W     [     ^     a     d     k     p     t     x     }                                                                                                                                        !     '     *     .     1     4     8     ;     @     H     R     V     Z     ^     f     j     m     r     }                                                                                                                                                 "     &     -     0     4     7     >     B     F     L     P     d     j     m     q     u     y                                                                                                                                       ,     5     9     =     D     H     L     P     Z     ]     a     e     h     s     w     z                                                                                                                                  "     &     8     @     D     H     K     S     V     [     c     g     k     n     w     z     ~                                                                                                                             
                         "     +     .     B     I     M     Q     U     \     b     f     l     o     v     y     |                                                                                                                                                                !     '     0     6     9     A     F     R     V     Y     ]     a     i     l     t     z     ~                                                                                                                                            $     ,     /     6     :     >     F     J     N     R     U     ]     a     j     m     p     t                                                                                                                                                  "     +     /     2     7     :     @     D     L     O     U     Y     \     _     d     j     q     u     y     ~                                                                                                                                       %     (     ,     0     8     <     @     G     Q     W     Z     ^     a     e     i     l     o     v     y     ~                                                                                                                                        (     +     /     7     >     A     G     K     X     [     _     c     f     o     r     w     z     ~                                                                                                                    	                              )     <     ?     E     H     N     T     X     [     ^     g     k     o     u                                                                                                                                       	                          )     -     1     5     8     @     C     F     M     P     W     ]     e     x     ~                                                                                                                                                      #     +     /     3     7     B     F     J     N     V     Y     \     e     i     l     o     u     ~                                                                                                                         '     *     7     <     F     I     L     O     T     [     _     c     l     p     t     w     {                                                                                               	                                    &     *     1     5     9     <     F     L     O     S     [     a     d     h     k     v     z     }                                                                                                                         
                              !      '      -      1      5      ;      A      E      I      L      Q      T      ]      c      g      k      q      t      x      {                                                                                                                                    !     	!     !     !     !     -!     0!     4!     7!     A!     D!     G!     M!     Q!     W!     Z!     ^!     f!     j!     n!     q!     w!     ~!     !     !     !     !     !     !     !     !     !     !     !     !     !     !     !     !     !     !     !     !     !     "     "     "     "     "     "     "     #"     ."     2"     5"     8"     B"     F"     Y"     ]"     g"     j"     o"     r"     x"     "     "     "     "     "     "     "     "     "     "     "     "     "     "     "     "     "     "     #     #     #     #     #     #     #     *#     -#     3#     7#     ;#     A#     D#     G#     P#     T#     X#     [#     c#     v#     y#     |#     #     #     #     #     #     #     #     #     #     #     #     #     #     #     #     #     #     #     #     #     #     $     $     $     $     $     $     #$     &$     )$     ,$     /$     3$     6$     :$     F$     I$     L$     P$     W$     ]$     `$     d$     k$     n$     $     $     $     $     $     $     $     $     $     $     $     $     $     $     $     $     $     $     $     $     $     $     $     %     
%     %     %     %     %     %     #%     )%     -%     4%     :%     >%     F%     I%     L%     O%     R%     d%     g%     s%     v%     z%     }%     %     %     %     %     %     %     %     %     %     %     %     %     %     %     %     %     %     %     %     %     &     &     &     &     &      &     #&     '&     .&     7&     @&     E&     I&     M&     V&     Z&     ]&     c&     n&     q&     u&     {&     &     &     &     &     &     &     &     &     &     &     &     &     &     &     &     &     &     &     &     &     &     &     &     	'     '     '     '     '     '     '     $'     ''     *'     0'     C'     V'     ]'     b'     f'     k'     q'     u'     |'     '     '     '     '     '     '     '     '     '     '     '     '     '     '     '     '     '     '     '     '     '     (     (     (     (     (     (     !(     $(     -(     0(     B(     F(     Q(     V(     Z(     `(     d(     v(     }(     (     (     (     (     (     (     (     (     (     (     (     (     (     (     (     (     (     (     (     (     (     (     (     (     (     (     )     	)     )     )     ")     %)     ()     ;)     C)     H)     T)     W)     _)     b)     e)     h)     t)     w)     z)     ~)     )     )     )     )     )     )     )     )     )     )     )     )     )     )     )     )     )     )     )     )     )     )     )     *     *     *     *      *     **     .*     2*     :*     =*     C*     G*     J*     T*     g*     p*     t*     x*     *     *     *     *     *     *     *     *     *     *     *     *     *     *     *     *     *     *     *     *     *     *     *     +     	+     +     +     +     +     +     %+     ++     .+     2+     <+     ?+     C+     I+     O+     W+     Z+     ^+     e+     i+     r+     +     +     +     +     +     +     +     +     +     +     +     +     +     +     +     +     +     +     +     +     +     ,     ,     ,     ,     ,     ,     ,     #,     ,,     2,     5,     9,     B,     F,     I,     R,     X,     c,     g,     j,     n,     s,     w,     ,     ,     ,     ,     ,     ,     ,     ,     ,     ,     ,     ,     ,     ,     ,     ,     ,     ,     ,     -     	-     -     -     -     -     !-     +-     /-     3-     6-     <-     @-     F-     S-     W-     [-     ^-     g-     k-     o-     x-     |-     -     -     -     -     -     -     -     -     -     -     -     -     -     -     -     -     -     -     -     -     -     .     .     .     .     !.     %.     (.     /.     2.     8.     ;.     >.     J.     P.     S.     \.     _.     c.     l.     p.     z.     .     .     .     .     .     .     .     .     .     .     .     .     .     .     .     .     .     .     .     .      /     /     /     /     /     /     /     '/     +/     ./     3/     :/     =/     E/     I/     M/     _/     j/     n/     r/     u/     {/     /     /     /     /     /     /     /     /     /     /     /     /     /     /     /     /     /     /     /     /     /     /     /     0     0     0     0     0      0     '0     -0     00     30     ;0     E0     Q0     U0     Y0     \0     d0     h0     q0     u0     y0     0     0     0     0     0     0     0     0     0     0     0     0     0     0     0     0     0     0     0     0     0     1     1     1     !1     )1     -1     11     :1     >1     C1     G1     J1     T1     Z1     ]1     `1     m1     w1     }1     1     1     1     1     1     1     1     1     1     1     1     1     1     1     1     1     1     2     2     	2     2     2     2     2     "2     *2     42     72     =2     A2     J2     N2     X2     \2     `2     e2     o2     r2     v2     y2     2     2     2     2     2     2     2     2     2     2     2     2     2     2     2     2      3     3     3     3     3     3     !3     %3     )3     .3     23     ;3     H3     P3     T3     W3     `3     t3     3     3     3     3     3     3     3     3     3     3     3     3     3     3     3     3     3     3     3     3     3     3     4     4     	4     4     4     4     4     "4     54     ;4     ?4     J4     O4     S4     Z4     e4     h4     l4     t4     4     4     4     4     4     4     4     4     4     4     4     4     4     4     4     4     4     4     5     5     5     5     5     #5     ,5     05     ?5     C5     F5     N5     U5     Y5     ]5     g5     p5     u5     5     5     5     5     5     5     5     5     5     5     5     5     5     5     5     5     5      6     6     6     6     6     6     6     *6     .6     26     56     96     B6     E6     I6     P6     T6     X6     \6     g6     z6     ~6     6     6     6     6     6     6     6     6     6     6     6     6     6     6     6     6     6     7     
7     7     7     7     "7     &7     -7     47     87     <7     H7     R7     V7     ^7     b7     p7     v7     7     7     7     7     7     7     7     7     7     7     7     7     7     7     7     7     7     7     7     7     8      8     (8     ,8     18     <8     @8     I8     M8     Q8     U8     ]8     p8     {8     8     8     8     8     8     8     8     8     8     8     8     8     8     8     8     8     8     9     9     	9     9     9     9     9     !9     )9     -9     79     H9     Q9     T9     \9     b9     f9     k9     o9     x9     |9     9     9     9     9     9     9     9     9     9     9     9     9     9     9     9     9     9     9     9     9     :     
:     :     :     :     #:     ':     1:     E:     I:     Q:     U:     i:     q:     |:     :     :     :     :     :     :     :     :     :     :     :     :     :     :     :     :     :     :     :     ;     ;     ;     ;     ;  